frequency (cm^-1),real,imaginary
3941.3  1.2470  0.0000
3945.2  1.2478  0.0000
3949.1  1.2483  0.0000
3952.9  1.2487  0.0000
3956.8  1.2492  0.0000
3960.6  1.2496  0.0000
3964.5  1.2501  0.0000
3968.3  1.2506  0.0000
3972.2  1.2510  0.0000
3976.1  1.2516  0.0000
3979.9  1.2522  0.0000
3983.8  1.2528  0.0000
3987.6  1.2535  0.0000
3991.5  1.2541  0.0000
3995.3  1.2548  0.0000
3999.2  1.2555  0.0000
